 Spectral energy distribution at the surface of the nebula: 
   viewPoints = 
    nu [Ryd]        lambda [um]         F(nu)*D^2            
                                        [Jy * pc^2]              
  1.0010000E-05   9103.574       0.000000    
  1.0295696E-05   8850.958       4134957.    
  1.0589551E-05   8605.348       0.000000    
  1.0891793E-05   8366.554       0.000000    
  1.1202660E-05   8134.387       0.000000    
  1.1522401E-05   7908.662       7389441.    
  1.1851267E-05   7689.201       3592196.    
  1.2189520E-05   7475.830       3492511.    
  1.2537427E-05   7268.379       3395595.    
  1.2895264E-05   7066.686       6602743.    
  1.3263314E-05   6870.588       0.000000    
  1.3641868E-05   6679.934       6241384.    
  1.4031228E-05   6494.569       3034092.    
  1.4431700E-05   6314.348       5899797.    
  1.4843602E-05   6139.128       5736085.    
  1.5267260E-05   5968.771       2788451.    
  1.5703012E-05   5803.140       0.000000    
  1.6151198E-05   5642.106       2635848.    
  1.6612177E-05   5485.541       0.000000    
  1.7086313E-05   5333.320       2491588.    
  1.7573982E-05   5185.323       4844891.    
  1.8075571E-05   5041.433       7065675.    
  1.8591474E-05   4901.536       6869610.    
  1.9122102E-05   4765.521       4452654.    
  1.9667876E-05   4633.280       4329100.    
  2.0229225E-05   4504.709       4208968.    
  2.0806598E-05   4379.706       0.000000    
  2.1400449E-05   4258.171       0.000000    
  2.2011249E-05   4140.009       3868211.    
  2.2639482E-05   4025.126       1880434.    
  2.3285647E-05   3913.431       0.000000    
  2.3950255E-05   3804.835       1777521.    
  2.4633830E-05   3699.253       1728196.    
  2.5336916E-05   3596.601       1680237.    
  2.6060070E-05   3496.797       1633613.    
  2.6803862E-05   3399.763       6353122.    
  2.7568885E-05   3305.421       6176823.    
  2.8355742E-05   3213.698       1501357.    
  2.9165056E-05   3124.519       1459694.    
  2.9997471E-05   3037.815       1419187.    
  3.0853644E-05   2953.517       1379806.    
  3.1734253E-05   2871.559       1341519.    
  3.2639993E-05   2791.875       1304292.    
  3.3571589E-05   2714.402       3804293.    
  3.4529770E-05   2639.079       2465818.    
  3.5515302E-05   2565.845       2397389.    
  3.6528963E-05   2494.645       2330865.    
  3.7571554E-05   2425.419       4532379.    
  3.8643899E-05   2358.115       2203302.    
  3.9746854E-05   2292.679       4284318.    
  4.0881288E-05   2229.058       0.000000    
  4.2048101E-05   2167.203       3037384.    
  4.3248216E-05   2107.064       0.000000    
  4.4482586E-05   2048.594       957049.0    
  4.5752186E-05   1991.747       2791477.    
  4.7058020E-05   1936.477       1809344.    
  4.8401125E-05   1882.741       0.000000    
  4.9782564E-05   1830.496       4275798.    
  5.1203435E-05   1779.700       2494289.    
  5.2664855E-05   1730.315       3233435.    
  5.4167987E-05   1682.299       3929632.    
  5.5714023E-05   1635.616       5348822.    
  5.7304183E-05   1590.229       2971653.    
  5.8939731E-05   1546.101       2166894.    
  6.0621958E-05   1503.198       702254.8    
  6.2352199E-05   1461.484       3413836.    
  6.4131826E-05   1420.929       663821.6    
  6.5962238E-05   1381.499       1290802.    
  6.7844900E-05   1343.163       3137454.    
  6.9781294E-05   1305.891       4270548.    
  7.1772956E-05   1269.653       1779446.    
  7.3821466E-05   1234.421       2306758.    
  7.5928438E-05   1200.167       560686.3    
  7.8095552E-05   1166.863       3815893.    
  8.0324513E-05   1134.483       1590003.    
  8.2617094E-05   1103.001       3091761.    
  8.4975109E-05   1072.394       3005966.    
  8.7400425E-05   1042.635       2435463.    
  8.9894958E-05   1013.703       947152.1    
  9.2460694E-05   985.5731       2302170.    
  9.5099662E-05   958.2239       3133598.    
  9.7813951E-05   931.6337       2176174.    
  1.0060571E-04   905.7814       2538946.    
  1.0347714E-04   880.6464       1645661.    
  1.0643053E-04   856.2089       1199996.    
  1.0946822E-04   832.4496       2333395.    
  1.1259260E-04   809.3496       2268641.    
  1.1580616E-04   786.8906       4043761.    
  1.1911144E-04   765.0547       3216723.    
  1.2251106E-04   743.8249       2432468.    
  1.2600771E-04   723.1841       2027116.    
  1.2960416E-04   703.1161       1642387.    
  1.3330326E-04   683.6050       1916175.    
  1.3710793E-04   664.6354       1242003.    
  1.4102118E-04   646.1921       1811305.    
  1.4504614E-04   628.2606       3522083.    
  1.4918597E-04   610.8267       2568261.    
  1.5344397E-04   593.8766       3051881.    
  1.5782348E-04   577.3968       1618469.    
  1.6232800E-04   561.3743       3409373.    
  1.6696108E-04   545.7965       2039856.    
  1.7172639E-04   530.6509       2231156.    
  1.7662773E-04   515.9257       2169245.    
  1.8166893E-04   501.6090       3515081.    
  1.8685404E-04   487.6896       1367015.    
  1.9218713E-04   474.1565       2658162.    
  1.9767245E-04   460.9989       1938299.    
  2.0331431E-04   448.2064       3140858.    
  2.0911719E-04   435.7689       2646538.    
  2.1508572E-04   423.6765       2177237.    
  2.2122457E-04   411.9198       2694137.    
  2.2753865E-04   400.4892       2245176.    
  2.3403295E-04   389.3758       2182873.    
  2.4071260E-04   378.5709       2652879.    
  2.4758288E-04   368.0657       2407313.    
  2.5464926E-04   357.8521       2340509.    
  2.6191733E-04   347.9219       2113018.    
  2.6939285E-04   338.2672       3002558.    
  2.7708174E-04   328.8805       2304668.    
  2.8499003E-04   319.7542       2838238.    
  2.9312409E-04   310.8812       3049946.    
  3.0149028E-04   302.2544       2824108.    
  3.1009526E-04   293.8670       1784730.    
  3.1894585E-04   285.7124       3737364.    
  3.2804903E-04   277.7840       2076377.    
  3.3741203E-04   270.0757       2775790.    
  3.4704228E-04   262.5812       2821431.    
  3.5694739E-04   255.2947       2623875.    
  3.6713519E-04   248.2104       2551066.    
  3.7761376E-04   241.3227       2367532.    
  3.8839143E-04   234.6261       2740277.    
  3.9947670E-04   228.1154       1918251.    
  4.1087836E-04   221.7853       1450573.    
  4.2260543E-04   215.6309       2316954.    
  4.3466722E-04   209.6472       2644424.    
  4.4707328E-04   203.8296       2951941.    
  4.5983339E-04   198.1735       1851630.    
  4.7295773E-04   192.6742       2070284.    
  4.8645664E-04   187.3276       2100351.    
  5.0034083E-04   182.1294       2212237.    
  5.1462132E-04   177.0754       1737223.    
  5.2930939E-04   172.1617       1769447.    
  5.4441666E-04   167.3842       2345929.    
  5.5995508E-04   162.7394       2889051.    
  5.7593704E-04   158.2235       2513204.    
  5.9237517E-04   153.8329       2371601.    
  6.0928240E-04   149.5641       1886557.    
  6.2667223E-04   145.4138       1562470.    
  6.4455840E-04   141.3786       2509838.    
  6.6295505E-04   137.4554       2825484.    
  6.8187679E-04   133.6411       2060308.    
  7.0133858E-04   129.9326       2610150.    
  7.2135578E-04   126.3271       2242636.    
  7.4194436E-04   122.8216       2754193.    
  7.6312054E-04   119.4133       2789339.    
  7.8490115E-04   116.0997       2223786.    
  8.0730341E-04   112.8780       2425747.    
  8.3034503E-04   109.7457       1897001.    
  8.5404434E-04   106.7003       2292988.    
  8.7842002E-04   103.7394       2520148.    
  9.0349140E-04   100.8607       2544451.    
  9.2927844E-04   98.06186       2657091.    
  9.5580140E-04   95.34070       2405197.    
  9.8308141E-04   92.69505       2078627.    
  1.0111399E-03   90.12281       2357770.    
  1.0399994E-03   87.62195       2824493.    
  1.0696825E-03   85.19048       2268528.    
  1.1002129E-03   82.82649       2437747.    
  1.1316146E-03   80.52811       2181997.    
  1.1639126E-03   78.29349       2194598.    
  1.1971324E-03   76.12088       2204826.    
  1.2313003E-03   74.00857       1625020.    
  1.2664434E-03   71.95487       2185006.    
  1.3025895E-03   69.95817       1666812.    
  1.3397675E-03   68.01686       2065419.    
  1.3780064E-03   66.12943       2193472.    
  1.4173368E-03   64.29437       2432970.    
  1.4577897E-03   62.51023       2394661.    
  1.4993971E-03   60.77561       1902317.    
  1.5421922E-03   59.08912       2512047.    
  1.5862086E-03   57.44943       2415501.    
  1.6314813E-03   55.85524       2505038.    
  1.6780462E-03   54.30528       2004232.    
  1.7259402E-03   52.79834       2269274.    
  1.7752011E-03   51.33321       2757880.    
  1.8258679E-03   49.90874       2354925.    
  1.8779809E-03   48.52380       2810965.    
  1.9315813E-03   47.17729       2777041.    
  1.9867115E-03   45.86814       2142844.    
  2.0434151E-03   44.59533       2166715.    
  2.1017373E-03   43.35783       2126843.    
  2.1617240E-03   42.15467       2402619.    
  2.2234228E-03   40.98491       2335947.    
  2.2868826E-03   39.84760       2178045.    
  2.3521536E-03   38.74184       2533889.    
  2.4192876E-03   37.66678       2199619.    
  2.4883377E-03   36.62155       2634733.    
  2.5593585E-03   35.60532       2162408.    
  2.6324063E-03   34.61729       2684606.    
  2.7075391E-03   33.65668       2106954.    
  2.7848163E-03   32.72272       2186073.    
  2.8642991E-03   31.81469       2452395.    
  2.9460506E-03   30.93184       2167586.    
  3.0301351E-03   30.07350       2332230.    
  3.1166198E-03   29.23898       2458746.    
  3.2055727E-03   28.42761       2151468.    
  3.2970645E-03   27.63876       2220886.    
  3.3911676E-03   26.87180       2824611.    
  3.4879565E-03   26.12612       2038311.    
  3.5875081E-03   25.40113       2515755.    
  3.6899007E-03   24.69627       2411332.    
  3.7952161E-03   24.01096       2232243.    
  3.9035373E-03   23.34467       2442954.    
  4.0149498E-03   22.69687       2428181.    
  4.1295425E-03   22.06704       2309249.    
  4.2474060E-03   21.45469       2185033.    
  4.3686330E-03   20.85933       2611650.    
  4.4933204E-03   20.28050       2103347.    
  4.6215663E-03   19.71773       2542408.    
  4.7534727E-03   19.17057       2319603.    
  4.8891441E-03   18.63859       1967890.    
  5.0286874E-03   18.12138       2345043.    
  5.1722135E-03   17.61852       2065965.    
  5.3198361E-03   17.12962       2264714.    
  5.4716724E-03   16.65428       2341916.    
  5.6278422E-03   16.19213       2375273.    
  5.7884688E-03   15.74281       2316715.    
  5.9536803E-03   15.30596       2230971.    
  6.1236075E-03   14.88122       2266394.    
  6.2983842E-03   14.46828       2372486.    
  6.4781494E-03   14.06679       2383588.    
  6.6000000E-03   13.80709       2397774.    
  6.6630454E-03   13.67645       2271326.    
  6.8532187E-03   13.29693       2235070.    
  6.8999999E-03   13.20678       2033765.    
  7.0488197E-03   12.92795       2316546.    
  7.1999999E-03   12.65650       2167915.    
  7.2500035E-03   12.56920       2275829.    
  7.4569294E-03   12.22042       2329300.    
  7.6697613E-03   11.88130       2248014.    
  7.8886673E-03   11.55161       2271335.    
  7.9999994E-03   11.39085       2032901.    
  8.1138220E-03   11.23105       263605.9    
  8.2999999E-03   10.97913       351836.7    
  8.3454018E-03   10.91940       2526624.    
  8.5835923E-03   10.61639       2324905.    
  8.6000003E-03   10.59614       2337842.    
  8.8285813E-03   10.32179       2209116.    
  9.0805618E-03   10.03537       2184731.    
  9.3397349E-03   9.756891       2370243.    
  9.6063046E-03   9.486142       2334800.    
  9.6999994E-03   9.394513       2569682.    
  9.8804822E-03   9.222908       255617.9    
  9.9999998E-03   9.112678       297424.4    
  1.0162486E-02   8.966977       2148793.    
  1.0300000E-02   8.847260       2346416.    
  1.0452539E-02   8.718147       2163257.    
  1.0750869E-02   8.476224       2308597.    
  1.1057716E-02   8.241013       2175238.    
  1.1373319E-02   8.012329       2171023.    
  1.1697930E-02   7.789991       2267621.    
  1.1999999E-02   7.593898       2052789.    
  1.2031807E-02   7.573823       2428375.    
  1.2300000E-02   7.408681       272157.5    
  1.2375212E-02   7.363654       2236661.    
  1.2600000E-02   7.232284       2110062.    
  1.2728419E-02   7.159316       2324742.    
  1.3091708E-02   6.960649       2175467.    
  1.3465364E-02   6.767494       2096133.    
  1.3849686E-02   6.579700       2022596.    
  1.4244976E-02   6.397117       2166703.    
  1.4651549E-02   6.219600       2182124.    
  1.5069726E-02   6.047009       2076931.    
  1.5299999E-02   5.955999       2122789.    
  1.5499839E-02   5.879208       327510.3    
  1.5600000E-02   5.841460       2287670.    
  1.5899999E-02   5.731244       2163752.    
  1.5942227E-02   5.716063       2149464.    
  1.6397242E-02   5.557446       2162704.    
  1.6865242E-02   5.403230       2054729.    
  1.7346602E-02   5.253293       2152321.    
  1.7841700E-02   5.107516       2044875.    
  1.8350929E-02   4.965786       2120364.    
  1.8874692E-02   4.827987       2077316.    
  1.9413402E-02   4.694014       1997741.    
  1.9967491E-02   4.563757       2073220.    
  2.0100001E-02   4.533670       2094401.    
  2.0400001E-02   4.466999       224634.4    
  2.0537393E-02   4.437115       2100870.    
  2.0700000E-02   4.402260       2371203.    
  2.1123560E-02   4.313988       2136197.    
  2.1726457E-02   4.194277       2041741.    
  2.2346564E-02   4.077888       2084149.    
  2.2984367E-02   3.964729       2083733.    
  2.3640376E-02   3.854709       1941273.    
  2.4315106E-02   3.747743       1959186.    
  2.5009096E-02   3.643745       1942268.    
  2.5722893E-02   3.542633       2012500.    
  2.6457062E-02   3.444327       1934127.    
  2.7212186E-02   3.348749       1874965.    
  2.7500000E-02   3.313701       1789734.    
  2.7799999E-02   3.277942       274514.0    
  2.7988862E-02   3.255823       2228680.    
  2.8099999E-02   3.242946       2135895.    
  2.8787706E-02   3.165475       2122764.    
  2.9609350E-02   3.077635       2033026.    
  3.0454444E-02   2.992232       2061881.    
  3.1323660E-02   2.909199       1985633.    
  3.2217685E-02   2.828470       2000568.    
  3.3137225E-02   2.749982       1996446.    
  3.4083009E-02   2.673672       1978514.    
  3.5055790E-02   2.599478       1847106.    
  3.6056332E-02   2.527344       1912737.    
  3.7085436E-02   2.457212       1921651.    
  3.8143907E-02   2.389026       1893997.    
  3.9232593E-02   2.322731       1901920.    
  3.9699998E-02   2.295385       1798703.    
  3.9999999E-02   2.278169       2240640.    
  4.0300000E-02   2.261210       2006378.    
  4.0352348E-02   2.258277       2016144.    
  4.1504063E-02   2.195611       2077102.    
  4.2688653E-02   2.134684       2103235.    
  4.3907050E-02   2.075447       2031298.    
  4.5160223E-02   2.017855       2000383.    
  4.6449162E-02   1.961860       1910047.    
  4.7774889E-02   1.907420       1901598.    
  4.9138457E-02   1.854490       1901677.    
  5.0540939E-02   1.803029       1962622.    
  5.1983453E-02   1.752996       1897514.    
  5.3467140E-02   1.704351       1789919.    
  5.4993171E-02   1.657056       1788249.    
  5.6562759E-02   1.611074       1757440.    
  5.8177143E-02   1.566367       1756970.    
  5.9837606E-02   1.522901       1717464.    
  6.1545458E-02   1.480642       1605791.    
  6.2199999E-02   1.465061       1636869.    
  6.2500000E-02   1.458028       2396420.    
  6.2799998E-02   1.451063       2366368.    
  6.3302055E-02   1.439555       2285575.    
  6.5108791E-02   1.399608       2158390.    
  6.6967092E-02   1.360770       2166518.    
  6.8878435E-02   1.323009       2170679.    
  7.0844330E-02   1.286296       2020905.    
  7.2866328E-02   1.250602       2051879.    
  7.4946046E-02   1.215898       1999485.    
  7.7085115E-02   1.182158       1902583.    
  7.9285234E-02   1.149354       1934087.    
  8.1548154E-02   1.117460       1900251.    
  8.3875664E-02   1.086451       1862752.    
  8.6269595E-02   1.056302       1842148.    
  8.8731863E-02   1.026990       1748809.    
  9.1264397E-02  0.9984921       1768385.    
  9.3869224E-02  0.9707844       1750153.    
  9.6548386E-02  0.9438456       1632801.    
  9.9304020E-02  0.9176545       1672802.    
  0.1021383      0.8921900       1566363.    
  0.1050535      0.8674322       1582874.    
  0.1080519      0.8433614       1514933.    
  0.1108700      0.8219245       541608.6    
  0.1111358      0.8199586       383430.4    
  0.1111700      0.8197065       2832626.    
  0.1114700      0.8175005       2797521.    
  0.1143078      0.7972052       2854118.    
  0.1158000      0.7869324       2723772.    
  0.1161000      0.7848990       2707970.    
  0.1164000      0.7828761       2876684.    
  0.1175703      0.7750831       2744843.    
  0.1209260      0.7535750       2661721.    
  0.1221800      0.7458404       2661578.    
  0.1224800      0.7440135       2512262.    
  0.1227800      0.7421956       2661190.    
  0.1243774      0.7326637       2533633.    
  0.1279273      0.7123327       2490547.    
  0.1315785      0.6925658       2392315.    
  0.1353340      0.6733475       2302841.    
  0.1370200      0.6650619       2269670.    
  0.1373200      0.6636089       2204666.    
  0.1376200      0.6621623       2265401.    
  0.1391966      0.6546624       2254152.    
  0.1431695      0.6364959       2160871.    
  0.1472557      0.6188335       2112182.    
  0.1514586      0.6016611       2030239.    
  0.1557815      0.5849653       1990846.    
  0.1602277      0.5687329       1994850.    
  0.1648009      0.5529508       1939756.    
  0.1695045      0.5376067       1891453.    
  0.1743424      0.5226884       1848244.    
  0.1793184      0.5081841       1825447.    
  0.1844364      0.4940823       1730012.    
  0.1897005      0.4803717       1713423.    
  0.1951149      0.4670417       1616131.    
  0.2006837      0.4540815       1581889.    
  0.2064115      0.4414810       1557998.    
  0.2123028      0.4292301       1530405.    
  0.2183623      0.4173192       1487158.    
  0.2245947      0.4057388       1456694.    
  0.2310049      0.3944798       1433593.    
  0.2375982      0.3835332       1411731.    
  0.2443796      0.3728904       1388824.    
  0.2473300      0.3684421       1386042.    
  0.2476300      0.3679957       1421856.    
  0.2479300      0.3675504       1452159.    
  0.2496400      0.3650328       1435468.    
  0.2499400      0.3645946       6062806.    
  0.2502400      0.3641575       5807565.    
  0.2513545      0.3625428       5727566.    
  0.2585285      0.3524825       5400051.    
  0.2659073      0.3427013       4973760.    
  0.2660000      0.3425819       4900534.    
  0.2663000      0.3421959       5276263.    
  0.2666000      0.3418109       5222575.    
  0.2734967      0.3331915       4869696.    
  0.2813027      0.3239456       4552881.    
  0.2893315      0.3149562       4219190.    
  0.2915900      0.3125168       4193430.    
  0.2918900      0.3121956       4365598.    
  0.2921900      0.3118751       4145777.    
  0.2975895      0.3062164       3991238.    
  0.3060831      0.2977191       3714994.    
  0.3148192      0.2894575       3478991.    
  0.3238046      0.2814252       3247953.    
  0.3330464      0.2736158       3089566.    
  0.3425520      0.2660232       2915220.    
  0.3523289      0.2586412       2767260.    
  0.3623849      0.2514640       2618109.    
  0.3727279      0.2444861       2544656.    
  0.3833660      0.2377017       2438398.    
  0.3943079      0.2311057       2361881.    
  0.4055620      0.2246926       2313978.    
  0.4171373      0.2184575       2292224.    
