 Spectral energy distribution at the surface of the nebula: 
   viewPoints = 
    nu [Ryd]        lambda [um]         F(nu)*D^2            
                                        [Jy * pc^2]              
  1.0010000E-05   9103.574       0.000000    
  1.0319485E-05   8830.555      3.0444456E+07
  1.0638543E-05   8565.719      4.4296868E+07
  1.0967466E-05   8308.827      2.8645578E+07
  1.1306558E-05   8059.639      2.7786474E+07
  1.1656134E-05   7817.924      2.6953140E+07
  1.2016519E-05   7583.459      2.6144792E+07
  1.2388045E-05   7356.025      1.2680346E+07
  1.2771059E-05   7135.413      2.4600088E+07
  1.3165915E-05   6921.416      2.9827906E+07
  1.3572979E-05   6713.837      2.8933378E+07
  1.3992628E-05   6512.485      5.0518096E+07
  1.4425253E-05   6317.170      2.1779116E+07
  1.4871252E-05   6127.713      2.6407472E+07
  1.5331041E-05   5943.939      2.0492354E+07
  1.5805048E-05   5765.675      2.4847196E+07
  1.6293709E-05   5592.758       9640836.    
  1.6797476E-05   5425.028      1.8703388E+07
  1.7316821E-05   5262.327      2.7213650E+07
  1.7852222E-05   5104.506      2.6397488E+07
  1.8404178E-05   4951.418      1.2802909E+07
  1.8973198E-05   4802.921      1.2418952E+07
  1.9559811E-05   4658.878      2.4092984E+07
  2.0164562E-05   4519.155      2.7265488E+07
  2.0788009E-05   4383.622      2.2669494E+07
  2.1430735E-05   4252.153      1.4659758E+07
  2.2093329E-05   4124.628      2.1330178E+07
  2.2776410E-05   4000.928      3.4484068E+07
  2.3480612E-05   3880.937      2.3414910E+07
  2.4206585E-05   3764.545      1.6223347E+07
  2.4955005E-05   3651.643      3.4620940E+07
  2.5726564E-05   3542.128      2.4423722E+07
  2.6521979E-05   3435.896      2.3691246E+07
  2.7341985E-05   3332.852      1.7235544E+07
  2.8187345E-05   3232.897      2.7864390E+07
  2.9058841E-05   3135.940      1.6217247E+07
  2.9957282E-05   3041.891      1.8352698E+07
  3.0883501E-05   2950.662      3.3061366E+07
  3.1838357E-05   2862.169      1.2334544E+07
  3.2822736E-05   2776.331      2.1536316E+07
  3.3837550E-05   2693.067      3.2496246E+07
  3.4883738E-05   2612.300      2.9270098E+07
  3.5962275E-05   2533.955      1.3104110E+07
  3.7074158E-05   2457.959      2.3303720E+07
  3.8220416E-05   2384.243      3.0824776E+07
  3.9402115E-05   2312.738      2.1926882E+07
  4.0620351E-05   2243.377      1.3535001E+07
  4.1876250E-05   2176.097      2.6258148E+07
  4.3170981E-05   2110.834      2.7289980E+07
  4.4505741E-05   2047.529      3.1765850E+07
  4.5881770E-05   1986.122      3.2525016E+07
  4.7300342E-05   1926.556      3.1549542E+07
  4.8762777E-05   1868.777      2.0939122E+07
  5.0270424E-05   1812.731      2.9685546E+07
  5.1824685E-05   1758.366      3.3341886E+07
  5.3427000E-05   1705.631      3.5282100E+07
  5.5078857E-05   1654.478      2.5667976E+07
  5.6781784E-05   1604.859      2.3514948E+07
  5.8537364E-05   1556.728      4.2935932E+07
  6.0347222E-05   1510.041      1.6919588E+07
  6.2213039E-05   1464.754      2.1462062E+07
  6.4136540E-05   1420.825      2.0818402E+07
  6.6119515E-05   1378.213      1.9006156E+07
  6.8163798E-05   1336.879      2.5349714E+07
  7.0271286E-05   1296.785      3.0177936E+07
  7.2443938E-05   1257.894      2.4936142E+07
  7.4683761E-05   1220.169      2.4188330E+07
  7.6992830E-05   1183.575      2.5503150E+07
  7.9373298E-05   1148.078      2.8696394E+07
  8.1827362E-05   1113.647      2.1116806E+07
  8.4357300E-05   1080.248      2.4207760E+07
  8.6965461E-05   1047.850      1.8062896E+07
  8.9654255E-05   1016.424      2.5405694E+07
  9.2426191E-05   985.9410      2.1244604E+07
  9.5283824E-05   956.3719      3.0499084E+07
  9.8229808E-05   927.6896      2.0789018E+07
  1.0126688E-04   899.8675      2.7921520E+07
  1.0439785E-04   872.8798      2.7836474E+07
  1.0762562E-04   846.7015      1.8974132E+07
  1.1095319E-04   821.3083      3.2562840E+07
  1.1438364E-04   796.6766      1.7166424E+07
  1.1792016E-04   772.7837      2.3978318E+07
  1.2156601E-04   749.6074      3.2950530E+07
  1.2532459E-04   727.1261      2.6321906E+07
  1.2919937E-04   705.3190      2.5532488E+07
  1.3319396E-04   684.1660      2.0638914E+07
  1.3731206E-04   663.6473      2.2879958E+07
  1.4155747E-04   643.7440      2.3303488E+07
  1.4593414E-04   624.4377      2.0451748E+07
  1.5044614E-04   605.7103      2.8713474E+07
  1.5509763E-04   587.5446      2.7852352E+07
  1.5989294E-04   569.9237      2.5543358E+07
  1.6483651E-04   552.8312      2.8112694E+07
  1.6993293E-04   536.2514      2.6807400E+07
  1.7518691E-04   520.1688      3.4521800E+07
  1.8060334E-04   504.5686      2.3918874E+07
  1.8618724E-04   489.4362      2.6998148E+07
  1.9194378E-04   474.7576      2.0050548E+07
  1.9787830E-04   460.5193      2.7387664E+07
  2.0399630E-04   446.7080      2.5026200E+07
  2.1030346E-04   433.3109      2.3902186E+07
  2.1680562E-04   420.3156      2.5358984E+07
  2.2350882E-04   407.7100      2.3544230E+07
  2.3041926E-04   395.4825      2.6246780E+07
  2.3754337E-04   383.6216      2.8766028E+07
  2.4488775E-04   372.1165      2.4375350E+07
  2.5245917E-04   360.9565      2.7999878E+07
  2.6026470E-04   350.1311      2.5651172E+07
  2.6831159E-04   339.6304      3.0443734E+07
  2.7660723E-04   329.4447      2.1580140E+07
  2.8515939E-04   319.5644      2.5339868E+07
  2.9397593E-04   309.9804      2.7518826E+07
  3.0306508E-04   300.6838      2.3065228E+07
  3.1243527E-04   291.6661      2.6144336E+07
  3.2209512E-04   282.9188      2.6335648E+07
  3.3205366E-04   274.4339      2.4363124E+07
  3.4232010E-04   266.2034      2.5009086E+07
  3.5290397E-04   258.2198      2.8265108E+07
  3.6381505E-04   250.4756      2.6122138E+07
  3.7506348E-04   242.9636      2.1778742E+07
  3.8665970E-04   235.6769      2.4375640E+07
  3.9861444E-04   228.6088      2.5614970E+07
  4.1093881E-04   221.7527      3.0962852E+07
  4.2364423E-04   215.1021      2.8180318E+07
  4.3674244E-04   208.6511      2.6975500E+07
  4.5024566E-04   202.3934      2.4770908E+07
  4.6416637E-04   196.3235      2.4874072E+07
  4.7851747E-04   190.4356      2.4784658E+07
  4.9331225E-04   184.7243      2.3245288E+07
  5.0856447E-04   179.1843      2.4246950E+07
  5.2428828E-04   173.8104      2.3369936E+07
  5.4049824E-04   168.5977      2.5284716E+07
  5.5720937E-04   163.5414      2.3821646E+07
  5.7443714E-04   158.6366      2.2833738E+07
  5.9219764E-04   153.8790      2.3475196E+07
  6.1050721E-04   149.2640      2.7273982E+07
  6.2938285E-04   144.7875      2.5956824E+07
  6.4884213E-04   140.4452      2.2273178E+07
  6.6890300E-04   136.2332      2.4305822E+07
  6.8958418E-04   132.1474      2.3690764E+07
  7.1090471E-04   128.1842      2.6073776E+07
  7.3288451E-04   124.3399      2.4327266E+07
  7.5554382E-04   120.6108      2.5364936E+07
  7.7890372E-04   116.9936      2.3797528E+07
  8.0298586E-04   113.4849      2.4453206E+07
  8.2781259E-04   110.0814      2.3530058E+07
  8.5340691E-04   106.7800      2.2088110E+07
  8.7979255E-04   103.5776      2.3478970E+07
  9.0699398E-04   100.4712      2.4160358E+07
  9.3503646E-04   97.45799      2.4359778E+07
  9.6394587E-04   94.53516      2.5177352E+07
  9.9374913E-04   91.69998      2.8216000E+07
  1.0244739E-03   88.94982      2.3843086E+07
  1.0561487E-03   86.28215      2.4243580E+07
  1.0888026E-03   83.69449      2.4814986E+07
  1.1224662E-03   81.18443      2.3930770E+07
  1.1571706E-03   78.74964      2.5520786E+07
  1.1929481E-03   76.38788      2.6533072E+07
  1.2298316E-03   74.09695      2.5801230E+07
  1.2678555E-03   71.87473      2.4841550E+07
  1.3070551E-03   69.71915      2.4216686E+07
  1.3474667E-03   67.62822      2.8386724E+07
  1.3891277E-03   65.60000      2.3577540E+07
  1.4320767E-03   63.63261      2.7422602E+07
  1.4763536E-03   61.72422      2.4365704E+07
  1.5219996E-03   59.87306      2.3015704E+07
  1.5690568E-03   58.07742      2.2475636E+07
  1.6175689E-03   56.33564      2.4375038E+07
  1.6675809E-03   54.64609      2.5057020E+07
  1.7191392E-03   53.00721      2.4214176E+07
  1.7722915E-03   51.41749      2.5881076E+07
  1.8270873E-03   49.87543      2.2353658E+07
  1.8835771E-03   48.37963      2.4310272E+07
  1.9418136E-03   46.92869      2.7181050E+07
  2.0018506E-03   45.52127      2.5110388E+07
  2.0637438E-03   44.15605      2.4966266E+07
  2.1275505E-03   42.83178      2.6210978E+07
  2.1933303E-03   41.54722      2.3813454E+07
  2.2611436E-03   40.30119      2.4975048E+07
  2.3310536E-03   39.09253      2.4697716E+07
  2.4031252E-03   37.92011      2.6277516E+07
  2.4774252E-03   36.78286      2.3175086E+07
  2.5540222E-03   35.67971      2.5309316E+07
  2.6329875E-03   34.60965      2.4788926E+07
  2.7143941E-03   33.57168      2.5579038E+07
  2.7983177E-03   32.56484      2.4868038E+07
  2.8848362E-03   31.58820      2.5429016E+07
  2.9740296E-03   30.64084      2.6303762E+07
  3.0659805E-03   29.72190      2.5540508E+07
  3.1607747E-03   28.83052      2.5470262E+07
  3.2584995E-03   27.96587      2.5887500E+07
  3.3592458E-03   27.12715      2.4269422E+07
  3.4631069E-03   26.31359      2.6308476E+07
  3.5701792E-03   25.52443      2.6531422E+07
  3.6805621E-03   24.75893      2.4519332E+07
  3.7943579E-03   24.01639      2.6557750E+07
  3.9116717E-03   23.29612      2.6263220E+07
  4.0326128E-03   22.59745      2.5378190E+07
  4.1572931E-03   21.91974      2.5353916E+07
  4.2858282E-03   21.26235      2.7122488E+07
  4.4183377E-03   20.62467      2.7357860E+07
  4.5549436E-03   20.00613      2.6399456E+07
  4.6957736E-03   19.40613      2.6962526E+07
  4.8409575E-03   18.82412      2.8133258E+07
  4.9906303E-03   18.25957      2.7761634E+07
  5.1449309E-03   17.71195      2.6852746E+07
  5.3040017E-03   17.18076      2.7646710E+07
  5.4679909E-03   16.66549      2.7277182E+07
  5.6370501E-03   16.16568      2.8646642E+07
  5.8113365E-03   15.68086      2.8125398E+07
  5.9910114E-03   15.21058      2.7793174E+07
  6.1762417E-03   14.75441      2.9413974E+07
  6.3671987E-03   14.31191      2.9395314E+07
  6.5640598E-03   13.88268      2.7844282E+07
  6.6000000E-03   13.80709      2.9158684E+07
  6.7670075E-03   13.46633      2.9357186E+07
  6.8999999E-03   13.20678      2.9473250E+07
  6.9762296E-03   13.06247      3.0104106E+07
  7.1919211E-03   12.67071      2.9652164E+07
  7.1999999E-03   12.65650      3.0829900E+07
  7.4142809E-03   12.29071      3.1258806E+07
  7.6435157E-03   11.92210      3.1299700E+07
  7.8798374E-03   11.56455      3.1818092E+07
  7.9999994E-03   11.39085      3.2713570E+07
  8.1234667E-03   11.21772       7335348.    
  8.2999999E-03   10.97913       8723647.    
  8.3746277E-03   10.88129      3.2753718E+07
  8.6000003E-03   10.59614      3.1981696E+07
  8.6335549E-03   10.55495      3.2732572E+07
  8.9004869E-03   10.23840      3.2306372E+07
  9.1756722E-03   9.931346      3.3006590E+07
  9.4593661E-03   9.633497      3.3803928E+07
  9.6999994E-03   9.394513      3.4660920E+07
  9.7518303E-03   9.344582      3.5225388E+07
  9.9999998E-03   9.112678      1.1360582E+07
  1.0053338E-02   9.064330      3.6214036E+07
  1.0300000E-02   8.847260      3.6676116E+07
  1.0364167E-02   8.792484      3.6282844E+07
  1.0684607E-02   8.528790      3.6945712E+07
  1.1014953E-02   8.273006      3.6679016E+07
  1.1355514E-02   8.024892      3.8158796E+07
  1.1706604E-02   7.784220      3.8724496E+07
  1.1999999E-02   7.593898      3.9228512E+07
  1.2068548E-02   7.550765      3.7457752E+07
  1.2300000E-02   7.408681      1.7807922E+07
  1.2441684E-02   7.324312      4.0120672E+07
  1.2600000E-02   7.232284      4.1437544E+07
  1.2826355E-02   7.104651      4.1854336E+07
  1.3222921E-02   6.891577      4.3009764E+07
  1.3631747E-02   6.684893      4.3165984E+07
  1.4053213E-02   6.484408      4.4894812E+07
  1.4487711E-02   6.289936      4.6058244E+07
  1.4935642E-02   6.101296      4.7002412E+07
  1.5299999E-02   5.955999      4.8389276E+07
  1.5397422E-02   5.918314      4.9066136E+07
  1.5600000E-02   5.841460      5.0093204E+07
  1.5873481E-02   5.740819      5.1856828E+07
  1.5899999E-02   5.731244      5.0881672E+07
  1.6364256E-02   5.568647      5.3048956E+07
  1.6870206E-02   5.401639      5.3687512E+07
  1.7391799E-02   5.239641      5.5915948E+07
  1.7929519E-02   5.082500      5.7090636E+07
  1.8483864E-02   4.930072      5.8854328E+07
  1.9055348E-02   4.782215      6.0357888E+07
  1.9644503E-02   4.638793      6.3216940E+07
  2.0100001E-02   4.533670      6.3946940E+07
  2.0251870E-02   4.499672      4.3309240E+07
  2.0400001E-02   4.466999      6.7284408E+07
  2.0700000E-02   4.402260      6.9292096E+07
  2.0878019E-02   4.364723      7.0426656E+07
  2.1523524E-02   4.233822      7.1977848E+07
  2.2188989E-02   4.106846      7.4363720E+07
  2.2875030E-02   3.983679      7.7487136E+07
  2.3582280E-02   3.864206      8.0332640E+07
  2.4311395E-02   3.748315      8.3089544E+07
  2.5063056E-02   3.635900      8.7132696E+07
  2.5837956E-02   3.526857      8.9356832E+07
  2.6636813E-02   3.421084      9.4115776E+07
  2.7460370E-02   3.318483      9.8585712E+07
  2.7500000E-02   3.313701      9.9089416E+07
  2.7799999E-02   3.277942      1.0438912E+08
  2.8099999E-02   3.242946      1.0717106E+08
  2.8309390E-02   3.218959      1.0666759E+08
  2.9184660E-02   3.122420      1.1124455E+08
  3.0086992E-02   3.028776      1.1569561E+08
  3.1017222E-02   2.937941      1.2041628E+08
  3.1976212E-02   2.849830      1.2652642E+08
  3.2964852E-02   2.764362      1.3155128E+08
  3.3984061E-02   2.681456      1.3757226E+08
  3.5034779E-02   2.601038      1.4495062E+08
  3.6117986E-02   2.523030      1.5143102E+08
  3.7234683E-02   2.447363      1.5792533E+08
  3.8385905E-02   2.373965      1.6567899E+08
  3.9572719E-02   2.302768      1.7334645E+08
  3.9699998E-02   2.295385      1.7547016E+08
  3.9999999E-02   2.278169      1.8170422E+08
  4.0300000E-02   2.261210      1.8547200E+08
  4.0796228E-02   2.233706      1.8861845E+08
  4.2057566E-02   2.166715      1.9598408E+08
  4.3357905E-02   2.101734      2.0630578E+08
  4.4698443E-02   2.038701      2.1595677E+08
  4.6080429E-02   1.977559      2.2608144E+08
  4.7505144E-02   1.918251      2.3801066E+08
  4.8973911E-02   1.860721      2.4877120E+08
  5.0488085E-02   1.804917      2.6128278E+08
  5.2049074E-02   1.750786      2.7411466E+08
  5.3658329E-02   1.698278      2.8840317E+08
  5.5317339E-02   1.647346      3.0173488E+08
  5.7027638E-02   1.597941      3.1711501E+08
  5.8790822E-02   1.550017      3.3225082E+08
  6.0608514E-02   1.503531      3.4838525E+08
  6.2199999E-02   1.465061      3.6421299E+08
  6.2482409E-02   1.458439      3.5424966E+08
  6.2500000E-02   1.458028      3.7768253E+08
  6.2799998E-02   1.451063      3.8183923E+08
  6.4414240E-02   1.414699      3.9729802E+08
  6.6405803E-02   1.372271      4.1472630E+08
  6.8458937E-02   1.331116      4.3674506E+08
  7.0575550E-02   1.291195      4.5504611E+08
  7.2757602E-02   1.252471      4.7798957E+08
  7.5007126E-02   1.214908      4.9958499E+08
  7.7326193E-02   1.178472      5.2415747E+08
  7.9716966E-02   1.143129      5.5098886E+08
  8.2181655E-02   1.108846      5.7778835E+08
  8.4722549E-02   1.075591      6.0708045E+08
  8.7342001E-02   1.043333      6.3566502E+08
  9.0042442E-02   1.012042      6.6602342E+08
  9.2826374E-02  0.9816905      6.9754413E+08
  9.5696382E-02  0.9522489      7.3286208E+08
  9.8655127E-02  0.9236902      7.6654573E+08
  0.1017053      0.8959881      8.0385242E+08
  0.1048499      0.8691167      8.4097568E+08
  0.1080916      0.8430513      8.7911974E+08
  0.1108700      0.8219245      8.9882093E+08
  0.1111700      0.8197065      9.3581254E+08
  0.1114336      0.8177675      9.3705075E+08
  0.1114700      0.8175005      9.4404947E+08
  0.1148789      0.7932420      9.8598656E+08
  0.1158000      0.7869324      9.9013606E+08
  0.1161000      0.7848990      9.9204416E+08
  0.1164000      0.7828761      9.9884730E+08
  0.1184307      0.7694522      1.0310845E+09
  0.1220924      0.7463757      1.0716074E+09
  0.1221800      0.7458404      1.0614870E+09
  0.1224800      0.7440135      1.0687134E+09
  0.1227800      0.7421956      1.0772525E+09
  0.1258672      0.7239913      1.1168588E+09
  0.1297588      0.7022783      1.1667379E+09
  0.1337707      0.6812164      1.2132599E+09
  0.1370200      0.6650619      1.2451153E+09
  0.1373200      0.6636089      1.2396952E+09
  0.1376200      0.6621623      1.2406852E+09
  0.1379066      0.6607862      1.2593394E+09
  0.1421704      0.6409687      1.3116164E+09
  0.1465660      0.6217456      1.3638376E+09
  0.1510975      0.6030990      1.4174048E+09
  0.1557692      0.5850116      1.4709791E+09
  0.1605852      0.5674667      1.5258856E+09
  0.1655502      0.5504479      1.5826171E+09
  0.1706687      0.5339395      1.6298203E+09
  0.1759454      0.5179263      1.6663439E+09
  0.1813853      0.5023933      1.7043950E+09
  0.1869934      0.4873262      1.7430132E+09
  0.1927749      0.4727109      1.7791855E+09
  0.1987351      0.4585339      1.8205690E+09
  0.2048796      0.4447821      1.8593101E+09
  0.2112140      0.4314428      1.8990481E+09
  0.2177444      0.4185035      1.9374651E+09
  0.2244766      0.4059523      1.9765545E+09
  0.2314169      0.3937775      2.0131163E+09
  0.2385719      0.3819678      2.0517537E+09
  0.2459481      0.3705123      2.2410583E+09
  0.2473300      0.3684421      2.3216210E+09
  0.2476300      0.3679957      2.2998909E+09
  0.2479300      0.3675504      2.3255511E+09
  0.2496400      0.3650328      2.3447411E+09
  0.2499400      0.3645946      2.4224968E+09
  0.2502400      0.3641575      2.4508439E+09
  0.2535523      0.3594003      2.2925596E+09
  0.2613916      0.3486216      2.2860961E+09
  0.2660000      0.3425819      2.5193984E+09
  0.2663000      0.3421959      2.4798193E+09
  0.2666000      0.3418109      2.5212388E+09
  0.2694733      0.3381662      2.3393306E+09
  0.2778049      0.3280244      2.2640458E+09
  0.2863941      0.3181867      2.3312927E+09
  0.2915900      0.3125168      2.6142766E+09
  0.2918900      0.3121956      2.5683914E+09
  0.2921900      0.3118751      2.6101806E+09
  0.2952488      0.3086440      2.3821448E+09
  0.3043773      0.2993875      2.3085345E+09
  0.3137881      0.2904087      2.3189903E+09
  0.3234897      0.2816991      2.3269885E+09
  0.3334914      0.2732508      2.3314785E+09
  0.3438022      0.2650558      2.3339530E+09
  0.3544319      0.2571066      2.3311140E+09
  0.3653902      0.2493958      2.3236613E+09
  0.3766873      0.2419162      2.3123743E+09
  0.3883337      0.2346610      2.2962158E+09
  0.4003401      0.2276234      2.2743419E+09
  0.4127178      0.2207968      2.2488110E+09
  0.4254782      0.2141750      2.2176335E+09
  0.4386331      0.2077517      2.1817743E+09
  0.4521948      0.2015211      2.1394083E+09
  0.4661757      0.1954773      2.0921829E+09
  0.4805889      0.1896148      2.0406950E+09
  0.4954477      0.1839281      1.9851017E+09
  0.5107659      0.1784120      1.9229024E+09
  0.5265577      0.1730613      1.8583648E+09
  0.5428378      0.1678711      1.7898862E+09
  0.5596212      0.1628365      1.7172114E+09
  0.5769235      0.1579529      1.6413980E+09
  0.5947608      0.1532158      1.5627352E+09
  0.6131496      0.1486208      1.4819329E+09
  0.6321070      0.1441635      1.3997137E+09
  0.6516505      0.1398399      1.3156621E+09
  0.6717982      0.1356461      1.2304696E+09
  0.6925688      0.1315779      1.1445619E+09
  0.7139816      0.1276318      1.0582496E+09
  0.7360564      0.1238041      9.7042688E+08
  0.7588138      0.1200911      9.4498368E+08
  0.7611457      0.1197232      9.9439046E+08
  0.7614457      0.1196760      9.9338298E+08
  0.7617457      0.1196289      9.6233254E+08
  0.7822748      0.1164895      8.1503366E+08
  0.8064611      0.1129959      7.4404870E+08
  0.8272945      0.1101504      7.6788230E+08
  0.8275945      0.1101104      7.5416230E+08
  0.8278944      0.1100705      7.5552461E+08
  0.8313952      0.1096070      7.1569363E+08
