 Spectral energy distribution at the surface of the nebula: 
   viewPoints = 
    nu [Ryd]        lambda [um]         F(nu)*D^2            
                                        [Jy * pc^2]              
  1.0010000E-05   9103.574       0.000000    
  1.0295696E-05   8850.958       0.000000    
  1.0589551E-05   8605.348       0.000000    
  1.0891793E-05   8366.554       0.000000    
  1.1202660E-05   8134.387       0.000000    
  1.1522401E-05   7908.662       0.000000    
  1.1851267E-05   7689.201       0.000000    
  1.2189520E-05   7475.830       0.000000    
  1.2537427E-05   7268.379       0.000000    
  1.2895264E-05   7066.686       0.000000    
  1.3263314E-05   6870.588       0.000000    
  1.3641868E-05   6679.934       0.000000    
  1.4031228E-05   6494.569       0.000000    
  1.4431700E-05   6314.348       0.000000    
  1.4843602E-05   6139.128       0.000000    
  1.5267260E-05   5968.771       0.000000    
  1.5703012E-05   5803.140       0.000000    
  1.6151198E-05   5642.106       0.000000    
  1.6612177E-05   5485.541       0.000000    
  1.7086313E-05   5333.320       0.000000    
  1.7573982E-05   5185.323       0.000000    
  1.8075571E-05   5041.433       0.000000    
  1.8591474E-05   4901.536       0.000000    
  1.9122102E-05   4765.521       0.000000    
  1.9667876E-05   4633.280       0.000000    
  2.0229225E-05   4504.709       0.000000    
  2.0806598E-05   4379.706       0.000000    
  2.1400449E-05   4258.171       0.000000    
  2.2011249E-05   4140.009       0.000000    
  2.2639482E-05   4025.126       0.000000    
  2.3285647E-05   3913.431       0.000000    
  2.3950255E-05   3804.835       0.000000    
  2.4633830E-05   3699.253       0.000000    
  2.5336916E-05   3596.601       0.000000    
  2.6060070E-05   3496.797       0.000000    
  2.6803862E-05   3399.763       0.000000    
  2.7568885E-05   3305.421       0.000000    
  2.8355742E-05   3213.698       0.000000    
  2.9165056E-05   3124.519       0.000000    
  2.9997471E-05   3037.815       0.000000    
  3.0853644E-05   2953.517       0.000000    
  3.1734253E-05   2871.559       0.000000    
  3.2639993E-05   2791.875       0.000000    
  3.3571589E-05   2714.402       0.000000    
  3.4529770E-05   2639.079       0.000000    
  3.5515302E-05   2565.845       0.000000    
  3.6528963E-05   2494.645       0.000000    
  3.7571554E-05   2425.419       0.000000    
  3.8643899E-05   2358.115       0.000000    
  3.9746854E-05   2292.679       0.000000    
  4.0881288E-05   2229.058       0.000000    
  4.2048101E-05   2167.203       0.000000    
  4.3248216E-05   2107.064       0.000000    
  4.4482586E-05   2048.594       0.000000    
  4.5752186E-05   1991.747       0.000000    
  4.7058020E-05   1936.477       0.000000    
  4.8401125E-05   1882.741       0.000000    
  4.9782564E-05   1830.496       0.000000    
  5.1203435E-05   1779.700       3384249.    
  5.2664855E-05   1730.315       3290341.    
  5.4167987E-05   1682.299       0.000000    
  5.5714023E-05   1635.616       0.000000    
  5.7304183E-05   1590.229       0.000000    
  5.8939731E-05   1546.101       0.000000    
  6.0621958E-05   1503.198       0.000000    
  6.2352199E-05   1461.484       0.000000    
  6.4131826E-05   1420.929       0.000000    
  6.5962238E-05   1381.499       0.000000    
  6.7844900E-05   1343.163       0.000000    
  6.9781294E-05   1305.891       0.000000    
  7.1772956E-05   1269.653       0.000000    
  7.3821466E-05   1234.421       0.000000    
  7.5928438E-05   1200.167       2282216.    
  7.8095552E-05   1166.863       0.000000    
  8.0324513E-05   1134.483       0.000000    
  8.2617094E-05   1103.001       0.000000    
  8.4975109E-05   1072.394       0.000000    
  8.7400425E-05   1042.635       0.000000    
  8.9894958E-05   1013.703       0.000000    
  9.2460694E-05   985.5731       0.000000    
  9.5099662E-05   958.2239       0.000000    
  9.7813951E-05   931.6337       0.000000    
  1.0060571E-04   905.7814       0.000000    
  1.0347714E-04   880.6464       1674623.    
  1.0643053E-04   856.2089       0.000000    
  1.0946822E-04   832.4496       0.000000    
  1.1259260E-04   809.3496       1539045.    
  1.1580616E-04   786.8906       0.000000    
  1.1911144E-04   765.0547       1454816.    
  1.2251106E-04   743.8249       1414444.    
  1.2600771E-04   723.1841       0.000000    
  1.2960416E-04   703.1161       1337034.    
  1.3330326E-04   683.6050       1299932.    
  1.3710793E-04   664.6354       0.000000    
  1.4102118E-04   646.1921       1228789.    
  1.4504614E-04   628.2606       0.000000    
  1.4918597E-04   610.8267       0.000000    
  1.5344397E-04   593.8766       0.000000    
  1.5782348E-04   577.3968       1097969.    
  1.6232800E-04   561.3743       0.000000    
  1.6696108E-04   545.7965       1037878.    
  1.7172639E-04   530.6509       0.000000    
  1.7662773E-04   515.9257       981076.4    
  1.8166893E-04   501.6090       0.000000    
  1.8685404E-04   487.6896       927382.2    
  1.9218713E-04   474.1565       0.000000    
  1.9767245E-04   460.9989       876627.2    
  2.0331431E-04   448.2064       0.000000    
  2.0911719E-04   435.7689       828651.0    
  2.1508572E-04   423.6765       0.000000    
  2.2122457E-04   411.9198       0.000000    
  2.2753865E-04   400.4892       761563.2    
  2.3403295E-04   389.3758       2221290.    
  2.4071260E-04   378.5709       0.000000    
  2.4758288E-04   368.0657       699908.6    
  2.5464926E-04   357.8521       1360971.    
  2.6191733E-04   347.9219       0.000000    
  2.6939285E-04   338.2672       0.000000    
  2.7708174E-04   328.8805       0.000000    
  2.8499003E-04   319.7542       0.000000    
  2.9312409E-04   310.8812       591166.4    
  3.0149028E-04   302.2544       1149525.    
  3.1009526E-04   293.8670       0.000000    
  3.1894585E-04   285.7124       543305.8    
  3.2804903E-04   277.7840       0.000000    
  3.3741203E-04   270.0757       1027143.    
  3.4704228E-04   262.5812       0.000000    
  3.5694739E-04   255.2947       0.000000    
  3.6713519E-04   248.2104       943986.8    
  3.7761376E-04   241.3227       458895.2    
  3.8839143E-04   234.6261       0.000000    
  3.9947670E-04   228.1154       867560.8    
  4.1087836E-04   221.7853       0.000000    
  4.2260543E-04   215.6309       410040.2    
  4.3466722E-04   209.6472       398661.4    
  4.4707328E-04   203.8296       387599.3    
  4.5983339E-04   198.1735       0.000000    
  4.7295773E-04   192.6742       366386.1    
  4.8645664E-04   187.3276       356219.3    
  5.0034083E-04   182.1294       692668.2    
  5.1462132E-04   177.0754       336723.3    
  5.2930939E-04   172.1617       327379.7    
  5.4441666E-04   167.3842       318295.6    
  5.5995508E-04   162.7394       0.000000    
  5.7593704E-04   158.2235       1504374.    
  5.9237517E-04   153.8329       292526.1    
  6.0928240E-04   149.5641       568817.8    
  6.2667223E-04   145.4138       1106065.    
  6.4455840E-04   141.3786       268843.2    
  6.6295505E-04   137.4554       261382.9    
  6.8187679E-04   133.6411       508259.1    
  7.0133858E-04   129.9326       988311.7    
  7.2135578E-04   126.3271       0.000000    
  7.4194436E-04   122.8216       934222.1    
  7.6312054E-04   119.4133       227074.4    
  7.8490115E-04   116.0997       220773.1    
  8.0730341E-04   112.8780       858587.6    
  8.3034503E-04   109.7457       626071.6    
  8.5404434E-04   106.7003       811597.8    
  8.7842002E-04   103.7394       591808.0    
  9.0349140E-04   100.8607       383589.9    
  9.2927844E-04   98.06186       745890.9    
  9.5580140E-04   95.34070       362596.7    
  9.8308141E-04   92.69505       705070.1    
  1.0111399E-03   90.12281       514128.3    
  1.0399994E-03   87.62195       166620.4    
  1.0696825E-03   85.19048       0.000000    
  1.1002129E-03   82.82649       157501.5    
  1.1316146E-03   80.52811       459392.7    
  1.1639126E-03   78.29349       148881.4    
  1.1971324E-03   76.12088       579001.1    
  1.2313003E-03   74.00857       281467.3    
  1.2664434E-03   71.95487       273656.7    
  1.3025895E-03   69.95817       266062.4    
  1.3397675E-03   68.01686       129339.6    
  1.3780064E-03   66.12943       503002.7    
  1.4173368E-03   64.29437       366783.3    
  1.4577897E-03   62.51023       713210.8    
  1.4993971E-03   60.77561       231139.8    
  1.5421922E-03   59.08912       561814.4    
  1.5862086E-03   57.44943       109244.9    
  1.6314813E-03   55.85524       531067.3    
  1.6780462E-03   54.30528       722862.3    
  1.7259402E-03   52.79834       702802.8    
  1.7752011E-03   51.33321       292843.2    
  1.8258679E-03   49.90874       949056.8    
  1.8779809E-03   48.52380       553632.2    
  1.9315813E-03   47.17729       358846.0    
  1.9867115E-03   45.86814       174444.4    
  2.0434151E-03   44.59533       763215.8    
  2.1017373E-03   43.35783       824484.6    
  2.1617240E-03   42.15467       80160.69    
  2.2234228E-03   40.98491       311744.9    
  2.2868826E-03   39.84760       454640.9    
  2.3521536E-03   38.74184       736708.7    
  2.4192876E-03   37.66678       358132.6    
  2.4883377E-03   36.62155       626750.4    
  2.5593585E-03   35.60532       609358.9    
  2.6324063E-03   34.61729       65827.69    
  2.7075391E-03   33.65668       256003.9    
  2.7848163E-03   32.72272       311125.0    
  2.8642991E-03   31.81469       362989.3    
  2.9460506E-03   30.93184       58819.50    
  3.0301351E-03   30.07350       400311.0    
  3.1166198E-03   29.23898       556003.2    
  3.2055727E-03   28.42761       324345.0    
  3.2970645E-03   27.63876       315344.5    
  3.3911676E-03   26.87180       664286.9    
  3.4879565E-03   26.12612       248404.9    
  3.5875081E-03   25.40113       338116.6    
  3.6899007E-03   24.69627       93924.06    
  3.7952161E-03   24.01096       547905.6    
  3.9035373E-03   23.34467       310743.0    
  4.0149498E-03   22.69687       431600.2    
  4.1295425E-03   22.06704       545509.4    
  4.2474060E-03   21.45469       652766.3    
  4.3686330E-03   20.85933       277660.6    
  4.4933204E-03   20.28050       347085.7    
  4.6215663E-03   19.71773       487433.8    
  4.7534727E-03   19.17057       291635.2    
  4.8891441E-03   18.63859       318985.5    
  5.0286874E-03   18.12138       585809.0    
  5.1722135E-03   17.61852       502546.9    
  5.3198361E-03   17.12962       358307.3    
  5.4716724E-03   16.65428       221686.3    
  5.6278422E-03   16.19213       338698.0    
  5.7884688E-03   15.74281       359235.7    
  5.9536803E-03   15.30596       320160.8    
  6.1236075E-03   14.88122       396170.3    
  6.2983842E-03   14.46828       412689.8    
  6.4781494E-03   14.06679       355744.9    
  6.6000000E-03   13.80709       422048.8    
  6.6630454E-03   13.67645       462259.2    
  6.8532187E-03   13.29693       411656.6    
  6.8999999E-03   13.20678       448819.2    
  7.0488197E-03   12.92795       422690.3    
  7.1999999E-03   12.65650       436364.6    
  7.2500035E-03   12.56920       455582.8    
  7.4569294E-03   12.22042       348572.1    
  7.6697613E-03   11.88130       406679.7    
  7.8886673E-03   11.55161       413524.2    
  7.9999994E-03   11.39085       173292.2    
  8.1138220E-03   11.23105       32514.58    
  8.2999999E-03   10.97913       42121.05    
  8.3454018E-03   10.91940       378353.9    
  8.5835923E-03   10.61639       268189.8    
  8.6000003E-03   10.59614       557418.6    
  8.8285813E-03   10.32179       385660.1    
  9.0805618E-03   10.03537       438911.1    
  9.3397349E-03   9.756891       296856.7    
  9.6063046E-03   9.486142       433210.2    
  9.6999994E-03   9.394513       569230.4    
  9.8804822E-03   9.222908       65029.17    
  9.9999998E-03   9.112678       34589.60    
  1.0162486E-02   8.966977       422689.6    
  1.0300000E-02   8.847260       336296.8    
  1.0452539E-02   8.718147       302885.0    
  1.0750869E-02   8.476224       370719.5    
  1.1057716E-02   8.241013       454458.3    
  1.1373319E-02   8.012329       319958.8    
  1.1697930E-02   7.789991       513650.6    
  1.1999999E-02   7.593898       438233.7    
  1.2031807E-02   7.573823       390175.0    
  1.2300000E-02   7.408681       28404.86    
  1.2375212E-02   7.363654       390175.0    
  1.2600000E-02   7.232284       331399.8    
  1.2728419E-02   7.159316       614971.3    
  1.3091708E-02   6.960649       608867.1    
  1.3465364E-02   6.767494       411806.6    
  1.3849686E-02   6.579700       325308.2    
  1.4244976E-02   6.397117       279787.1    
  1.4651549E-02   6.219600       354812.8    
  1.5069726E-02   6.047009       330937.7    
  1.5299999E-02   5.955999       362859.0    
  1.5499839E-02   5.879208       32514.58    
  1.5600000E-02   5.841460       390019.2    
  1.5899999E-02   5.731244       256523.8    
  1.5942227E-02   5.716063       431573.4    
  1.6397242E-02   5.557446       454422.2    
  1.6865242E-02   5.403230       380163.6    
  1.7346602E-02   5.253293       399582.3    
  1.7841700E-02   5.107516       359357.3    
  1.8350929E-02   4.965786       330499.9    
  1.8874692E-02   4.827987       312148.2    
  1.9413402E-02   4.694014       258855.7    
  1.9967491E-02   4.563757       440411.5    
  2.0100001E-02   4.533670       248082.8    
  2.0400001E-02   4.466999       66903.76    
  2.0537393E-02   4.437115       390176.2    
  2.0700000E-02   4.402260       416024.4    
  2.1123560E-02   4.313988       408627.4    
  2.1726457E-02   4.194277       382836.6    
  2.2346564E-02   4.077888       356704.3    
  2.2984367E-02   3.964729       376963.0    
  2.3640376E-02   3.854709       329852.3    
  2.4315106E-02   3.747743       370585.7    
  2.5009096E-02   3.643745       277155.1    
  2.5722893E-02   3.542633       350303.8    
  2.6457062E-02   3.444327       340583.1    
  2.7212186E-02   3.348749       336700.8    
  2.7500000E-02   3.313701       265509.8    
  2.7799999E-02   3.277942       59859.71    
  2.7988862E-02   3.255823       195088.1    
  2.8099999E-02   3.242946       341897.8    
  2.8787706E-02   3.165475       413608.4    
  2.9609350E-02   3.077635       339438.1    
  3.0454444E-02   2.992232       324328.8    
  3.1323660E-02   2.909199       420437.7    
  3.2217685E-02   2.828470       403392.7    
  3.3137225E-02   2.749982       376511.3    
  3.4083009E-02   2.673672       396568.0    
  3.5055790E-02   2.599478       370734.3    
  3.6056332E-02   2.527344       341222.6    
  3.7085436E-02   2.457212       308391.0    
  3.8143907E-02   2.389026       331633.8    
  3.9232593E-02   2.322731       363574.0    
  3.9699998E-02   2.295385       330482.3    
  3.9999999E-02   2.278169       308887.6    
  4.0300000E-02   2.261210       304522.6    
  4.0352348E-02   2.258277       324049.3    
  4.1504063E-02   2.195611       363236.6    
  4.2688653E-02   2.134684       336919.7    
  4.3907050E-02   2.075447       303890.8    
  4.5160223E-02   2.017855       303132.3    
  4.6449162E-02   1.961860       324565.9    
  4.7774889E-02   1.907420       322813.3    
  4.9138457E-02   1.854490       352646.5    
  5.0540939E-02   1.803029       315432.0    
  5.1983453E-02   1.752996       296678.2    
  5.3467140E-02   1.704351       327337.2    
  5.4993171E-02   1.657056       356066.3    
  5.6562759E-02   1.611074       340058.5    
  5.8177143E-02   1.566367       318707.8    
  5.9837606E-02   1.522901       335927.3    
  6.1545458E-02   1.480642       268386.7    
  6.2199999E-02   1.465061       245254.1    
  6.2500000E-02   1.458028       341404.3    
  6.2799998E-02   1.451063       522954.9    
  6.3302055E-02   1.439555       384464.3    
  6.5108791E-02   1.399608       391236.4    
  6.6967092E-02   1.360770       364854.0    
  6.8878435E-02   1.323009       369824.2    
  7.0844330E-02   1.286296       396252.5    
  7.2866328E-02   1.250602       368609.5    
  7.4946046E-02   1.215898       432369.1    
  7.7085115E-02   1.182158       377660.3    
  7.9285234E-02   1.149354       360623.3    
  8.1548154E-02   1.117460       393114.6    
  8.3875664E-02   1.086451       349150.5    
  8.6269595E-02   1.056302       335444.4    
  8.8731863E-02   1.026990       324183.1    
  9.1264397E-02  0.9984921       375946.3    
  9.3869224E-02  0.9707844       319363.2    
  9.6548386E-02  0.9438456       326654.6    
  9.9304020E-02  0.9176545       321079.9    
  0.1021383      0.8921900       317259.7    
  0.1050535      0.8674322       328249.9    
  0.1080519      0.8433614       370620.7    
  0.1108700      0.8219245       158147.1    
  0.1111358      0.8199586       65029.77    
  0.1111700      0.8197065       700550.6    
  0.1114700      0.8175005       609298.3    
  0.1143078      0.7972052       585713.6    
  0.1158000      0.7869324       566044.2    
  0.1161000      0.7848990       634040.1    
  0.1164000      0.7828761       630244.8    
  0.1175703      0.7750831       594837.6    
  0.1209260      0.7535750       577686.5    
  0.1221800      0.7458404       690446.1    
  0.1224800      0.7440135       585267.9    
  0.1227800      0.7421956       580935.0    
  0.1243774      0.7326637       557146.5    
  0.1279273      0.7123327       559433.1    
  0.1315785      0.6925658       530738.5    
  0.1353340      0.6733475       523437.8    
  0.1370200      0.6650619       545173.3    
  0.1373200      0.6636089       422683.1    
  0.1376200      0.6621623       509396.3    
  0.1391966      0.6546624       518526.6    
  0.1431695      0.6364959       486560.4    
  0.1472557      0.6188335       502477.3    
  0.1514586      0.6016611       502263.2    
  0.1557815      0.5849653       496112.5    
  0.1602277      0.5687329       485589.8    
  0.1648009      0.5529508       516278.6    
  0.1695045      0.5376067       511152.9    
  0.1743424      0.5226884       468144.0    
  0.1793184      0.5081841       481245.4    
  0.1844364      0.4940823       558087.1    
  0.1897005      0.4803717       493273.3    
  0.1951149      0.4670417       515110.1    
  0.2006837      0.4540815       516358.8    
  0.2064115      0.4414810       531413.2    
  0.2123028      0.4292301       485650.1    
  0.2183623      0.4173192       495981.0    
  0.2245947      0.4057388       523881.3    
  0.2310049      0.3944798       564854.3    
  0.2375982      0.3835332       564496.3    
  0.2443796      0.3728904       587358.7    
  0.2473300      0.3684421       546170.9    
  0.2476300      0.3679957       552739.3    
  0.2479300      0.3675504       611473.0    
  0.2496400      0.3650328       626032.0    
  0.2499400      0.3645946       1495646.    
  0.2502400      0.3641575       1468826.    
  0.2513545      0.3625428       1473428.    
  0.2585285      0.3524825       1343903.    
  0.2659073      0.3427013       1289891.    
  0.2660000      0.3425819       1291723.    
  0.2663000      0.3421959       1463205.    
  0.2666000      0.3418109       1345912.    
  0.2734967      0.3331915       1318920.    
  0.2813027      0.3239456       1262203.    
  0.2893315      0.3149562       1263008.    
  0.2915900      0.3125168       1231464.    
  0.2918900      0.3121956       1105533.    
  0.2921900      0.3118751       1179199.    
  0.2975895      0.3062164       1181644.    
  0.3060831      0.2977191       1142466.    
  0.3148192      0.2894575       1134434.    
  0.3238046      0.2814252       1094395.    
  0.3330464      0.2736158       1052059.    
  0.3425520      0.2660232       1106332.    
  0.3523289      0.2586412       1119401.    
  0.3623849      0.2514640       1123725.    
  0.3727279      0.2444861       1091148.    
  0.3833660      0.2377017       1084826.    
  0.3943079      0.2311057       1111411.    
  0.4055620      0.2246926       1141667.    
  0.4171373      0.2184575       1159001.    
